ID,Channel,Content Length,Content
558442904293736452,pewdiepie-vs-tseries,243,So best think you haven't wonNLWhen I'm through with youNLWe're gonna be completely f*cking doneNL'Cause we only just begunNLI review you_ zeroNLBye b*tch_ goneNLSo come on_ T-SeriesNLLooking hungry for some dramaNLHere_ let me serve you b*tch lasagna
558443712519208966,pewdiepie-vs-tseries,42,yeah that's all T-series is b*itch lasagna
558443807473926144,pewdiepie-vs-tseries,4,true
558444067323641871,pewdiepie-vs-tseries,26,are all of you subscribed?
558444249163628563,pewdiepie-vs-tseries,21,that's what I thought
558444431272050691,pewdiepie-vs-tseries,26,oh you're on b*tch lasagna
558444819282657291,pewdiepie-vs-tseries,24,hey at least I'm not gay
558445115182546944,pewdiepie-vs-tseries,17,STOP REMINDING ME
558445621132918821,pewdiepie-vs-tseries,22,yeah T-Series you suck
558446311754432513,pewdiepie-vs-tseries,31,thank you <@515996949887844382>
558446385893081088,general,2,hi
558446485692219413,general,21,no its just me RHH010
558446587320205362,pewdiepie-vs-tseries,60,hey you can talk to me like that but not my fans so f*ck off
558446677678358530,general,3,how
558446686519820299,subcount,0,
558446772092141579,pewdiepie-vs-tseries,18,not in front of me
558447148619005953,pewdiepie-vs-tseries,35,why don't you <@557910740892385310>
558447436993921052,pewdiepie-vs-tseries,71,so what I don't care who they are but you can't treat my fans like that
558447590899974165,pewdiepie-vs-tseries,17,good and stay out
558447657442476042,subcount,0,
558447803907571713,pewdiepie-vs-tseries,35,yes listen to <@552678390197649418>
558448319735791627,commands,0,
558448324311646209,commands,0,
558448330900766720,commands,0,
558448336143908864,commands,0,
558448343454449669,commands,0,
558448354162507776,commands,0,
558449372569010176,commands,0,
558449379883614231,commands,0,
558449380596908032,commands,0,
558449383239057418,commands,0,
558449700852989983,subcount,0,
558450053530779651,subcount,0,
558452229942542376,subcount,0,
558453247526961160,subcount,0,
558453400430444564,subcount,0,
558453499629928459,subcount,0,
558453704538193920,pewdiepie-vs-tseries,8,hwy guys
558453774658830356,pewdiepie-vs-tseries,4,hey*
558453901188268042,pewdiepie-vs-tseries,13,you good man?
558454077722198036,support,8,hey guys
558454143983943683,general,8,hey guys
558454210669314049,general,8,you good
558454776375803916,general,15,it better be me
558455784615313438,subcount,0,
558456482845425664,subcount,0,
558457703740080148,commands,0,
558457715949830205,commands,0,
558458065897259018,subcount,0,
558458659756048385,pewdiepie-vs-tseries,9,true that
558460748834013189,subcount,0,
558462122800054272,subcount,0,
558462991176040459,subcount,0,
558463026639142912,commands,0,
558465453975142432,subcount,0,
558465947384414209,subcount,0,
558467059575422977,subcount,0,
558468376549392424,subcount,0,
558469319575732225,subcount,0,
558470061602635776,subcount,0,
558473203677265941,subcount,0,
558473355791958016,subcount,0,
558474078172741652,commands,0,
558474291591774249,subcount,0,
558755624943353881,commands,0,
558755651967516699,commands,0,
558755675275264012,commands,0,
558755695609249812,commands,0,
558755715603496966,commands,0,
558755726621802507,subcount,0,
558755727771172879,commands,0,
558755740513206282,commands,0,
558755751179583541,commands,0,
558755764768866324,commands,0,
558755771857240075,commands,0,
558755792652599296,commands,0,
558755806946918410,commands,0,
558755815687847966,commands,0,
558755816249753610,commands,0,
558755833425690630,commands,0,
558755846545211423,commands,0,
558755857530224661,commands,0,
558755874974466049,commands,0,
558755893303574550,commands,0,
558755895379755020,commands,0,
558755915051040782,commands,0,
558755928418156554,commands,0,
558755938841001994,commands,0,
558755948584239115,commands,0,
558755968381616150,commands,0,
558755987666763826,commands,0,
558756034911535166,commands,0,
558756044919275550,commands,0,
558756054985342978,commands,0,
558756066846834721,commands,0,
558756079362768907,commands,0,
558756115123535873,subcount,0,
558756137835429888,commands,0,
558756871889223680,commands,0,
558756884375666728,commands,0,
558756893707993097,commands,0,
558756903392378880,commands,0,
558757048951635983,commands,0,
558757081038192650,commands,0,
558757115926151195,commands,0,
558759445824536596,commands,0,
558759456523943949,commands,0,
558759465013215252,commands,0,
558759495245889567,commands,0,
558760110768521256,subcount,0,
558760751981002772,commands,0,
558760763783905313,commands,0,
558760777381576745,commands,0,
558760780196085780,commands,0,
558760794867892246,commands,0,
558760800618020864,commands,0,
558760874949738500,commands,0,
558760881584996364,commands,0,
558760891601125381,commands,0,
558760900161568792,commands,0,
558760910169178128,commands,0,
558763167686066176,subcount,0,
558763250565775380,commands,0,
558763268894883860,subcount,0,
558763293981016104,commands,0,
558763296962904105,commands,0,
558763311588573185,commands,0,
558763321071894561,commands,0,
558763329774944262,commands,0,
558763338465542156,commands,0,
558763529830662156,commands,0,
558763538135646208,commands,0,
558763549011214346,commands,0,
558763556758093849,commands,0,
558763568149823490,commands,0,
558763578778320903,commands,0,
558763586072084507,commands,0,
558763601616306199,commands,0,
558763611854733312,commands,0,
558763621165826048,commands,0,
558763635825180673,commands,0,
558763655517175858,commands,0,
558763665315201024,commands,0,
558764240131850240,commands,0,
558764249971949609,commands,0,
558764262571638796,commands,0,
558764272776380426,commands,0,
558764281248874506,commands,0,
558764295098335244,commands,0,
558764428275744811,commands,0,
558764444520546335,commands,0,
558764450681847808,commands,0,
558764461796622356,commands,0,
558764471301177350,commands,0,
558764572149022730,commands,0,
558764580399218710,commands,0,
558764590435926050,commands,0,
558764601463013406,commands,0,
558764613315854367,commands,0,
558764644546904092,commands,0,
558764660417888299,commands,0,
558764670383554580,commands,0,
558764680194293760,commands,0,
558764696862457894,commands,0,
558764704495960064,commands,0,
558764723626311700,commands,0,
558764730626342912,commands,0,
558764737316257880,commands,0,
558764745570779162,commands,0,
558764759399399426,subcount,0,
558765074148229130,commands,0,
558765080720703489,commands,0,
558765089231208458,commands,0,
558765097632399389,commands,0,
558765108407435264,commands,0,
558765115911176195,commands,0,
558765130511548417,commands,0,
558765149259825155,commands,0,
558765157635850260,commands,0,
558765164481216523,commands,0,
558765177730891796,commands,0,
558765419368808448,commands,0,
558765428571242497,commands,0,
558765436913582082,commands,0,
558765452491358234,commands,0,
558765455469183020,commands,0,
558765470845501492,commands,0,
558765527250632725,commands,0,
558765535790104616,commands,0,
558765536163397664,subcount,0,
558765542442401792,commands,0,
558765550277492742,commands,0,
558765558561112085,commands,0,
558765566350065664,commands,0,
558765584699883541,commands,0,
558765650030362624,commands,0,
558765658838532116,commands,0,
558765669878071318,commands,0,
558765675607490570,commands,0,
558765683392118821,commands,0,
558765692133048321,commands,0,
558765703109541889,commands,0,
558765740614877195,commands,0,
558765746994282515,commands,0,
558765754321731584,commands,0,
558765754456211476,subcount,0,
558765760953057290,commands,0,
558765767810613267,commands,0,
558766069259436033,subcount,0,
558766248536571905,subcount,0,
558766265137889303,commands,0,
558766416568909824,subcount,0,
558768623359885371,commands,0,
558768630502916126,subcount,0,
558768630222028822,commands,0,
558768637302013953,commands,0,
558768644872601600,commands,0,
558768651101274139,commands,0,
558768664200085530,commands,0,
558768689164582922,commands,0,
558768698056507402,commands,0,
558768708731011082,commands,0,
558768716360188019,commands,0,
558768732378497025,commands,0,
558768742868451329,commands,0,
558768768784924684,commands,0,
558768780382044239,commands,0,
558768790788112394,commands,0,
558768799097290772,commands,0,
558768807666122799,commands,0,
558768819053658123,commands,0,
558768828759408662,commands,0,
558768837601001502,commands,0,
558768853107343401,commands,0,
558768877199163393,commands,0,
558768886489677834,commands,0,
558768894840406076,commands,0,
558768902369312779,commands,0,
558768910351204353,commands,0,
558768985244434452,commands,0,
558768999744274433,commands,0,
558769012087980032,commands,0,
558769020992618517,commands,0,
558769028269604929,commands,0,
558769035718950923,commands,0,
558769189410701312,subcount,0,
558770697329967106,subcount,0,
558771150591885315,subcount,0,
558771333836570639,commands,0,
558771345148870677,commands,0,
558771352190976005,commands,0,
558771358922964993,commands,0,
558771368385052682,commands,0,
558771377172381735,commands,0,
558771860129579029,commands,0,
558771876684365834,commands,0,
558771886201241654,commands,0,
558771893994520596,commands,0,
558771904790528049,commands,0,
558771937464025121,commands,0,
558772018527338514,commands,0,
558772057945538592,commands,0,
558772074622222356,commands,0,
558772081429577728,commands,0,
558772088035606539,commands,0,
558772094054432821,commands,0,
558772102099107880,commands,0,
558772105127395328,commands,0,
558772110437122059,commands,0,
558772122961575936,commands,0,
558772282848182314,commands,0,
558772340478181426,commands,0,
558772352020774912,commands,0,
558772361231466536,commands,0,
558772374766485525,commands,0,
558772379657043980,commands,0,
558772388133732382,commands,0,
558772401530470420,commands,0,
558772411353399308,commands,0,
558772422141018137,commands,0,
558772431683321866,commands,0,
558772439858020373,commands,0,
558772449739538462,commands,0,
558772723979911264,subcount,0,
558773089408778241,commands,0,
558773182744494091,commands,0,
558773208489394196,subcount,0,
558773305209913344,commands,0,
558777801667510277,subcount,0,
558777900208226335,commands,0,
558778364907880449,commands,0,
558778371593469956,commands,0,
558778383807545405,commands,0,
558778396000256001,commands,0,
558778402790834191,commands,0,
558778492540420097,commands,0,
558778533879611393,commands,0,
558778546068258848,commands,0,
558778556025536522,commands,0,
558778566343655435,commands,0,
558778575306620931,commands,0,
558778586199359490,commands,0,
558778594831237153,commands,0,
558778608697475082,commands,0,
558778616247484448,commands,0,
558778626951086090,commands,0,
558778635541282846,commands,0,
558779013649399857,subcount,0,
558779260761014282,commands,0,
558779268658888724,commands,0,
558779276514557953,commands,0,
558779287709155330,commands,0,
558779298400436242,commands,0,
558779436502089753,subcount,0,
558779789289455646,subcount,0,
558780468665778187,commands,0,
558780774376144928,commands,0,
558780790809296897,subcount,0,
558781060184539156,commands,0,
558781062638206978,commands,0,
558781069512409130,commands,0,
558781076546519051,commands,0,
558781084255387649,commands,0,
558781366146433024,commands,0,
558781372773171221,commands,0,
558781378414641154,commands,0,
558781385788358668,commands,0,
558781393002430524,commands,0,
558781396445954088,subcount,0,
558784604253978624,commands,0,
558784620871548940,commands,0,
558784626609487887,commands,0,
558784627402342400,commands,0,
558784637896491049,commands,0,
558784644565434388,commands,0,
558784663196270657,commands,0,
558784696474140673,commands,0,
558784711615578142,commands,0,
558784723657424898,commands,0,
558784772177002506,commands,0,
558784791751688214,commands,0,
558784809414164500,commands,0,
558784825650184224,commands,0,
558784857698730014,commands,0,
558786411990351882,commands,0,
558786444454264832,commands,0,
558786472484798466,commands,0,
558787284326023200,subcount,0,
558788360823635968,commands,0,
558788370797428737,commands,0,
558788379001487370,commands,0,
558788387444752396,commands,0,
558788395942281219,commands,0,
558788544575963137,commands,0,
558788763053064193,commands,0,
558788796225683456,commands,0,
558788804589387776,commands,0,
558788812151586827,commands,0,
558788821961932813,commands,0,
558789160077623306,subcount,0,
558789281485815810,subcount,0,
558789379817078815,commands,0,
558789408929873953,commands,0,
558789428315947008,commands,0,
558789474704687110,commands,0,
558789494438887440,commands,0,
558789507407675394,commands,0,
558789519223160873,commands,0,
558789527481614346,commands,0,
558789544808546314,commands,0,
558789604178788367,commands,0,
558789620079263785,commands,0,
558789672268988416,commands,0,
558789692389195824,commands,0,
558789702325633026,commands,0,
558789712521854987,commands,0,
558789732776280074,commands,0,
558789745623433222,commands,0,
558792248796512257,subcount,0,
558793004769345537,subcount,0,
558793373494935575,subcount,0,
558794218810638358,subcount,0,
558795089241964584,commands,0,
558795109248925718,commands,0,
558795126168616961,commands,0,
558795148771721226,commands,0,
558795158729261076,commands,0,
558795167897878531,commands,0,
558795178136305664,commands,0,
558795194334576643,commands,0,
558795231286525962,commands,0,
558795269475401749,commands,0,
558795284096745504,commands,0,
558795290963083274,commands,0,
558795303415971881,commands,0,
558795319723163648,commands,0,
558795328548241415,commands,0,
558795338744463370,commands,0,
558795349427224597,commands,0,
558795367404011528,commands,0,
558795382721609739,commands,0,
558795412174143490,commands,0,
558795424203407380,commands,0,
558795441286676491,commands,0,
558795487927336981,commands,0,
558795510182445093,commands,0,
558795547964604451,commands,0,
558795589031165955,commands,0,
558795611621556224,commands,0,
558795856996859915,subcount,0,
558796135041335306,subcount,0,
558796573216342039,subcount,0,
558796922094354432,commands,0,
558796960841334825,commands,0,
558797003648401416,subcount,0,
558797004961087508,commands,0,
558797039350317056,commands,0,
558797753531236363,commands,0,
558797782178201606,commands,0,
558797812100366336,commands,0,
558797860150444045,commands,0,
558797887862210562,commands,0,
558797909626191892,commands,0,
558797928047706114,commands,0,
558797946955497482,commands,0,
558797996364660759,subcount,0,
558798170587398154,subcount,0,
558800480063455251,subcount,0,
558800571436498945,subcount,0,
558801619198672919,subcount,0,
558803235268198431,subcount,0,
558803396195516426,subcount,0,
558803494589693953,subcount,0,
558803843232563201,commands,0,
558803846172770370,commands,0,
558803853781237762,commands,0,
558803863675600896,commands,0,
558803873415036958,commands,0,
558803883275583548,commands,0,
558803894680158211,commands,0,
558803901642702858,commands,0,
558803902347345921,commands,0,
558803925701230594,commands,0,
558803934668652544,commands,0,
558803942683705344,commands,0,
558803950086782977,commands,0,
558803957909159981,commands,0,
558803958035120154,commands,0,
558808791986995230,subcount,0,
558809205608284163,subcount,0,
558809430154543104,commands,0,
558810164375846942,subcount,0,
558811102176215041,subcount,0,
558813119657541633,subcount,0,
558813331889061890,subcount,0,
558813732692819979,subcount,0,
558813903635873822,subcount,0,
558814375230701578,commands,0,
558815273084256257,subcount,0,
558815321071419424,commands,0,
558815327505612802,commands,0,
558815336200405024,commands,0,
558815347554123807,commands,0,
558815513300566026,commands,0,
558816666310541337,commands,0,
558819014462275615,subcount,0,
558819105776467997,subcount,0,
558819557083578378,subcount,0,
558819831848108032,subcount,0,
558821106153422848,subcount,0,
558822711980326922,subcount,0,
558823142970097664,subcount,0,
558823785256452127,subcount,0,
558824621722304512,subcount,0,
558824642333245446,subcount,0,
558824728396300318,subcount,0,
558825092600037376,subcount,0,
558825620986134529,subcount,0,
558825934514290699,subcount,0,
558826287976939531,subcount,0,
558827048735342612,subcount,0,
558827324959752193,commands,0,
558827528786280449,commands,0,
558827543143120906,commands,0,
558827552559464449,commands,0,
558827563242225669,commands,0,
558827582208868423,commands,0,
558827670566207498,commands,0,
558827679520915516,commands,0,
558827689348300803,commands,0,
558827699888717845,commands,0,
558827707165835275,commands,0,
558827721061433345,commands,0,
558827726413496326,commands,0,
558827732512014371,commands,0,
558827737612025860,commands,0,
558827745870741504,commands,0,
558827760806658058,commands,0,
558827768998264852,commands,0,
558827778703622156,commands,0,
558827786823794708,commands,0,
558827797242445824,commands,0,
558828575311265796,commands,0,
558828657590927370,commands,0,
558828669666066463,commands,0,
558828730521485333,commands,0,
558828744421408780,commands,0,
558828782367014926,commands,0,
558828798347444224,commands,0,
558828875338088458,commands,0,
558828885412806676,commands,0,
558828903750303764,commands,0,
558828924621029377,commands,0,
558828956837609476,commands,0,
558829003503566848,subcount,0,
558829032284749852,commands,0,
558829051775549461,commands,0,
558829069270122509,commands,0,
558829119454838785,commands,0,
558829145271042056,commands,0,
558829161834348584,commands,0,
558829190896680990,commands,0,
558829211507359769,commands,0,
558829234605260819,commands,0,
558829243052851211,commands,0,
558829248098467851,commands,0,
558829255568392202,commands,0,
558829259490066435,commands,0,
558829271338975245,commands,0,
558829300309295136,commands,0,
558829357783711813,commands,0,
558829395872186369,commands,0,
558829415954382848,commands,0,
558829431087562772,commands,0,
558829447604731906,commands,0,
558829463522246657,commands,0,
558829482627170338,commands,0,
558829500096446475,commands,0,
558829522942820352,commands,0,
558829522930106380,commands,0,
558829529024561152,commands,0,
558829546330259457,commands,0,
558829567863685147,commands,0,
558829592429854736,subcount,0,
558829594384531558,commands,0,
558829632238125056,commands,0,
558829649392697354,commands,0,
558829671631028236,commands,0,
558829675930058755,commands,0,
558829782360522752,commands,0,
558829797040455691,commands,0,
558829834856300555,commands,0,
558829840690839593,commands,0,
558830001106059269,subcount,0,
558830144182157333,subcount,0,
558830532406935573,subcount,0,
558830552632000532,subcount,0,
558830655824199689,commands,0,
558830931943620610,commands,0,
558830937522176010,commands,0,
558831065519620106,commands,0,
558831080099020800,commands,0,
558831159241474050,commands,0,
558831175750385685,commands,0,
558831187859341323,commands,0,
558831229026435082,commands,0,
558831234323841033,commands,0,
558831347611729941,commands,0,
558831355845148682,commands,0,
558831511537844244,commands,0,
558831515484553246,commands,0,
558831555615916033,commands,0,
558831562771136533,commands,0,
558831574016196609,commands,0,
558831583570821131,commands,0,
558831594756898826,commands,0,
558831599970418688,commands,0,
558831611832041502,commands,0,
558831617779695616,commands,0,
558831627405623306,commands,0,
558831633768120321,commands,0,
558831639774494722,commands,0,
558831644224651274,commands,0,
558831647395414026,commands,0,
558831655469580298,commands,0,
558831655519911994,commands,0,
558831666852921354,commands,0,
558831679557337123,commands,0,
558831688151728128,commands,0,
558831699388006400,commands,0,
558831707722219520,commands,0,
558831708225404958,commands,0,
558831717532565525,commands,0,
558831725963247630,commands,0,
558831735878582303,commands,0,
558831742383947777,commands,0,
558831776840024065,commands,0,
558831789053837335,commands,0,
558831797832646690,commands,0,
558831808779780097,commands,0,
558831819160682508,commands,0,
558831832695832578,commands,0,
558831842422423563,commands,0,
558831850949443594,commands,0,
558831860130775040,commands,0,
558831868716253184,commands,0,
558831902954356737,commands,0,
558831914040164372,commands,0,
558831917785415680,commands,0,
558831935368200242,commands,0,
558831943777648640,commands,0,
558831951579185193,commands,0,
558831959829381133,commands,0,
558831988635729920,commands,0,
558832001160052736,commands,0,
558832007052787744,commands,0,
558832020290142218,subcount,0,
558832028825419779,commands,0,
558832065865318403,commands,0,
558832068302340097,commands,0,
558832104734064653,commands,0,
558832106449535024,commands,0,
558832110438449192,commands,0,
558832154721648653,commands,0,
558832184375377947,commands,0,
558832188741910539,commands,0,
558832195012132869,commands,0,
558832207406432266,commands,0,
558832208694083586,commands,0,
558832213677047808,commands,0,
558832214075375617,commands,0,
558832223273353226,commands,0,
558832231574011949,commands,0,
558832232492564490,commands,0,
558832498549981204,subcount,0,
558832512080543758,commands,0,
558832520410431489,commands,0,
558832532238499840,commands,0,
558832549598593027,subcount,0,
558832608482557953,commands,0,
558832625687724032,commands,0,
558832796399960064,subcount,0,
558833071978315786,commands,0,
558833122955755545,commands,0,
558833157634392074,commands,0,
558833350446678018,commands,0,
558833357560086549,subcount,0,
558833472433684492,commands,0,
558833483636801536,commands,0,
558833495024074763,commands,0,
558833506999074876,commands,0,
558833518982070273,commands,0,
558833790609260564,subcount,0,
558833815087480832,commands,0,
558834060601065473,commands,0,
558834079974555668,commands,0,
558834091009507365,commands,0,
558834106532626432,subcount,0,
558834117056135203,commands,0,
558834330709786636,commands,0,
558834339002187777,commands,0,
558834500935614464,subcount,0,
558834504274542612,subcount,0,
558834819895787521,commands,0,
558834975684952084,commands,0,
558835038490329088,commands,0,
558835049177284613,commands,0,
558835165405773834,commands,0,
558835238927859754,commands,0,
558835427574939659,subcount,0,
558835538891767830,commands,0,
558835690943545344,commands,0,
558835819406950410,subcount,0,
558836334597374011,commands,0,
558836339911426049,subcount,0,
558836377442189324,commands,0,
558836388905353226,commands,0,
558836400271917067,commands,0,
558836413026795532,commands,0,
558836424900739072,commands,0,
558836437416673290,commands,0,
558836451316596786,commands,0,
558836463861497865,commands,0,
558836482882666520,commands,0,
558836500419313665,commands,0,
558836513086111752,commands,0,
558836525802979368,commands,0,
558836544656375811,commands,0,
558836557252001792,commands,0,
558836571902705665,commands,0,
558836581054808086,commands,0,
558836591905472513,commands,0,
558836604341452800,commands,0,
558836617763225611,commands,0,
558836632086642722,commands,0,
558836645651021836,commands,0,
558836656480976907,commands,0,
558836737686634506,commands,0,
558836749158055957,commands,0,
558836758498902019,commands,0,
558836771358769152,commands,0,
558836779088740353,commands,0,
558836803172302869,commands,0,
558836807987494923,commands,0,
558836836227612703,commands,0,
558836839553695754,commands,0,
558836867605200936,commands,0,
558836873544597515,commands,0,
558836878598602753,commands,0,
558836889038094346,commands,0,
558836899947479099,commands,0,
558836905681354792,commands,0,
558836914552307727,commands,0,
558836962539077641,commands,0,
558836972190171171,commands,0,
558836985045975060,commands,0,
558836998824263692,commands,0,
558837032055472164,commands,0,
558837037038305290,commands,0,
558837075697205248,commands,0,
558837099038507008,commands,0,
558837107691618355,commands,0,
558837119385337867,commands,0,
558837129560719362,commands,0,
558837137869635595,commands,0,
558837138410438671,commands,0,
558837146082082826,commands,0,
558837147524661291,commands,0,
558837164159270936,subcount,0,
558837182203166761,commands,0,
558837201731977227,commands,0,
558837202398740482,commands,0,
558837205708177429,commands,0,
558837206148710409,commands,0,
558837215774638082,commands,0,
558837217263353867,commands,0,
558837218186362956,commands,0,
558837231301820416,commands,0,
558837231285174303,commands,0,
558837247785566209,commands,0,
558837257948102657,commands,0,
558837278428889088,commands,0,
558837278810570767,commands,0,
558837294249803778,commands,0,
558837303645175809,commands,0,
558837311358631957,commands,0,
558837331612794882,commands,0,
558837350428573696,commands,0,
558837360142450690,commands,0,
558837396276379678,commands,0,
558837423812116490,commands,0,
558837438097784852,commands,0,
558837538408890368,commands,0,
558837564984000513,commands,0,
558837579110154243,commands,0,
558837588291616768,subcount,0,
558837662220419073,commands,0,
558837675633934338,subcount,0,
558837676858671106,commands,0,
558837689823264808,commands,0,
558837704285224979,commands,0,
558837711117484032,commands,0,
558837720013602836,commands,0,
558837736539160587,commands,0,
558837748291731488,commands,0,
558837759775866921,commands,0,
558837780436877322,commands,0,
558837784685838347,subcount,0,
558837797910216725,commands,0,
558837812355661837,commands,0,
558837832433795134,commands,0,
558837861999181824,commands,0,
558837862884311050,commands,0,
558837880923881474,commands,0,
558837888700383234,commands,0,
558837896656846868,commands,0,
558837911160619018,commands,0,
558837911613734924,commands,0,
558837930626646016,commands,0,
558837959135199232,commands,0,
558837963396612116,commands,0,
558837984573784066,commands,0,
558838019050962984,commands,0,
558838029612089365,commands,0,
558838053985058816,commands,0,
558838055864107019,commands,0,
558838061153124352,commands,0,
558838062067744788,commands,0,
558838067398574083,commands,0,
558838076361670676,commands,0,
558838081650950146,commands,0,
558838082309193728,commands,0,
558838086058901504,commands,0,
558838126982856724,commands,0,
558838132976386049,commands,0,
558838150206849044,commands,0,
558838170741899264,commands,0,
558838193693261855,commands,0,
558838208138444800,commands,0,
558838213217746946,commands,0,
558838220444401689,commands,0,
558838232733712409,commands,0,
558838243454615573,commands,0,
558838269245128704,commands,0,
558838296130617401,commands,0,
558838309246337037,commands,0,
558838326422011935,commands,0,
558838339340599317,commands,0,
558838401038549023,subcount,0,
558838628382408745,commands,0,
558838635860852737,commands,0,
558838645310881822,commands,0,
558838656261947398,commands,0,
558838665057402886,commands,0,
558838887984660491,commands,0,
558838923770593294,commands,0,
558838953134915594,commands,0,
558838970373636107,commands,0,
558838985514942464,subcount,0,
558839000841060368,commands,0,
558839032042356737,commands,0,
558839193522929664,commands,0,
558839203404709897,commands,0,
558839356899459096,commands,0,
558839379985039391,commands,0,
558839385165004830,commands,0,
558839801680494594,commands,0,
558839837277290497,commands,0,
558839851030675476,commands,0,
558839859993772043,commands,0,
558839887600812033,commands,0,
558839890310201355,commands,0,
558839917765984277,commands,0,
558839924082606090,commands,0,
558839939605725184,commands,0,
558839944592752673,commands,0,
558839950720630784,commands,0,
558839951169421321,commands,0,
558839962221674496,commands,0,
558839970299641864,commands,0,
558839970626928650,commands,0,
558839974624231435,subcount,0,
558839983600042005,commands,0,
558840012775358467,commands,0,
558840028642410535,commands,0,
558840060078718988,commands,0,
558840076872712192,commands,0,
558840120233689098,commands,0,
558840222427643908,commands,0,
558840245572075531,commands,0,
558840261459968015,commands,0,
558840276840480808,commands,0,
558840279990534164,commands,0,
558840298248339467,commands,0,
558840321178468363,commands,0,
558840350144200714,commands,0,
558840364564217857,commands,0,
558840388111302656,commands,0,
558840406083633162,commands,0,
558840425440608287,commands,0,
558840437771599873,commands,0,
558840450916679690,commands,0,
558840480347979786,commands,0,
558840495749464064,commands,0,
558840506877083668,commands,0,
558840517748588554,commands,0,
558840524916654100,commands,0,
558840537118015498,commands,0,
558840545087324160,commands,0,
558840554855858199,commands,0,
558840620831997975,commands,0,
558840928781991947,commands,0,
558840939909742613,commands,0,
558840954761510913,subcount,0,
558841145715720203,subcount,0,
558841157489131531,commands,0,
558841287659225098,subcount,0,
558841546263363585,commands,0,
558841574671384585,commands,0,
558841620506738700,commands,0,
558841632527613952,commands,0,
558841644703809540,commands,0,
558841657462620171,commands,0,
558841661183098880,commands,0,
558841666509865012,commands,0,
558841680636280833,commands,0,
558841701058215947,commands,0,
558841757060694029,commands,0,
558841765914869760,commands,0,
558841773506560033,commands,0,
558841781760819212,commands,0,
558841791718359061,commands,0,
558842039769366538,commands,0,
558842059763482624,commands,0,
558842081397702656,commands,0,
558842097730584598,commands,0,
558842415683862528,commands,0,
558842456280662037,subcount,0,
558842490342604825,commands,0,
558842496277413908,commands,0,
558842501662900244,commands,0,
558842505739632659,commands,0,
558842511557132291,subcount,0,
558842614015590430,commands,0,
558842768814768139,subcount,0,
558843258193838081,commands,0,
558843570250055690,commands,0,
558843584531660820,commands,0,
558843612201222185,commands,0,
558843621349130240,commands,0,
558843628001427534,commands,0,
558843640080891905,commands,0,
558843646892310570,subcount,0,
558843647307546625,commands,0,
558843650235432963,commands,0,
558843675141210122,commands,0,
558843675942191124,commands,0,
558843679725584404,commands,0,
558843720594882561,commands,0,
558843722209427496,commands,0,
558843733408481313,commands,0,
558843752291237910,commands,0,
558844182060466257,commands,0,
558844501830139928,commands,0,
558844522918969344,commands,0,
558844568951455774,commands,0,
558844615004782613,commands,0,
558844781191626772,commands,0,
558844799189385225,commands,0,
558844809234743306,commands,0,
558844815622537217,commands,0,
558844824665587713,commands,0,
558844831183667200,commands,0,
558844837701615656,commands,0,
558844844538331162,commands,0,
558844851555401733,commands,0,
558844897918976003,subcount,0,
558844910384709642,commands,0,
558844930806644768,commands,0,
558844945931173888,commands,0,
558845005897138192,commands,0,
558845793801338887,subcount,0,
558845911623532544,subcount,0,
558846012513452053,commands,0,
558846036961918977,commands,0,
558846060286705665,commands,0,
558846071024123904,commands,0,
558846078141726722,commands,0,
558846088870625330,commands,0,
558846218583932929,commands,0,
558846274212986900,commands,0,
558846732138709002,commands,0,
558846971247329294,subcount,0,
558847121218994189,commands,0,
558847378266914826,commands,0,
558847633674862603,commands,0,
558848815587786764,subcount,0,
558848922848722944,commands,0,
558851920660398090,subcount,0,
558854847861096459,subcount,0,
558855842380906536,subcount,0,
558857382537592866,subcount,0,
558857949662019584,subcount,0,
558861059763732490,subcount,0,
558861697734017044,subcount,0,
558862835871121410,subcount,0,
558863213089914882,subcount,0,
558865785125339136,subcount,0,
558867726790033419,commands,0,
558867737883967489,commands,0,
558867752564293633,commands,0,
558867760327688193,commands,0,
558867768196202496,commands,0,
558867813809258521,commands,0,
558867821191495683,commands,0,
558867838270439425,commands,0,
558867848546484244,commands,0,
558867861674917889,commands,0,
558867871304908826,commands,0,
558991736266031105,commands,0,
558991778280374273,commands,0,
558991946278895626,subcount,0,
558992122037010437,commands,0,
558993941895315496,commands,0,
558993954767372288,commands,0,
558993970999590952,commands,0,
558993982634590219,commands,0,
558994005497741313,commands,0,
558994017346650143,commands,0,
558994028729729044,commands,0,
558994039135797258,commands,0,
558994055758086164,commands,0,
558994065903976448,commands,0,
558994081435353089,commands,0,
558994094047887380,commands,0,
558994121382035496,commands,0,
558994131867664384,commands,0,
558994142319869962,subcount,0,
558994149693718550,commands,0,
558994167422910484,commands,0,
558994183394820096,commands,0,
558994278500663296,commands,0,
558994288499752960,commands,0,
558994289435082762,commands,0,
558994307982295081,commands,0,
558994315888558080,commands,0,
558994331219001354,commands,0,
558994351250735115,commands,0,
558994370162851863,commands,0,
558994384318758963,commands,0,
558994404304748594,commands,0,
558994417697161226,commands,0,
558994435384279061,commands,0,
558994453373911040,commands,0,
558994466728312852,commands,0,
558994480485629962,subcount,0,
558994484461961226,commands,0,
558994495895633930,commands,0,
558994509858603008,commands,0,
558994519278747661,commands,0,
558994522143719424,commands,0,
558994532474290197,commands,0,
558994546495586304,commands,0,
558994559624019996,commands,0,
558994568620802059,commands,0,
558994580218052638,commands,0,
558994582872784928,commands,0,
558994594574893066,commands,0,
558994597938724865,commands,0,
558994602150068224,commands,0,
558994608873275394,commands,0,
558994619803893800,commands,0,
558994625592033281,commands,0,
558994639357476873,commands,0,
558994658685091841,commands,0,
558994685566124036,subcount,0,
558994731892342784,commands,0,
558994732903170063,commands,0,
558994742734618626,commands,0,
558994748216705035,commands,0,
558994756726816768,commands,0,
558994787613540352,commands,0,
558994810954842124,commands,0,
558994906450886659,commands,0,
558995196298264577,subcount,0,
558995471670968320,commands,0,
558996827253243904,subcount,0,
558996868231856128,subcount,0,
558996938255499265,subcount,0,
558997230472658944,commands,0,
558997249569456144,commands,0,
558997264052256794,commands,0,
558997276950003722,commands,0,
558997290275045386,commands,0,
558997302233006080,commands,0,
559001817984401408,subcount,0,
559002494651596800,subcount,0,
559003419793293313,subcount,0,
559004342846226442,subcount,0,
559004460370886657,subcount,0,
559004756371177483,subcount,0,
559005239404003339,subcount,0,
559007532501303298,subcount,0,
559007694220951575,subcount,0,
559007823959293952,subcount,0,
559009293152550913,subcount,0,
559010305330380800,subcount,0,
559011163267006488,subcount,0,
559011893713436673,subcount,0,
559011897534447627,commands,0,
559011933970235400,commands,0,
559012668535472138,subcount,0,
